# Incident energy (eV) <ix = -1> D@S@0@N@
 -2.763493722132500E-002  0.000000000000000E+000
 -2.689076635196357E-002   1.61829842288865     
 -2.541784959503192E-002   1.75331209172541     
 -2.394440031549894E-002   1.83981849915840     
 -2.245902356563881E-002   1.90224466420019     
 -2.096350680853401E-002   1.93429410423498     
 -1.946887753116082E-002   1.95245748075051     
 -1.796118828063125E-002   1.96359871566322     
 -1.644054652987059E-002   1.97670235257579     
 -1.492039977094186E-002   1.99276558664199     
 -1.338795555243630E-002   2.00888378932351     
 -1.184302293495344E-002   2.03222302250736     
 -1.029830153793506E-002   2.05151848555209     
 -8.741200871919565E-003   2.07059869195133     
 -7.169765108656370E-003   2.09192117084713     
 -5.596391782924343E-003   2.11306333708068     
 -4.009285715665004E-003   2.13325177332387     
 -2.407231793499862E-003   2.15582415637963     
 -8.027186780715442E-004   2.17811883828995     
  7.222482027063638E-004   2.18630505045392     
  2.445727663856482E-003   2.21781189953068     
  4.705028124355796E-003   2.27868790855873     
  7.448756847466896E-003   2.37226605218746     
  1.062892123894494E-002   2.51402354385131     
  1.419191372374710E-002   2.69472163440769     
  1.807690669065985E-002   2.90498272048633     
  2.222966506509995E-002   3.13369648696994     
  2.659237875228051E-002   3.35476515636702     
  3.110208014362341E-002   3.57090275979623     
  3.569070415039962E-002   3.77848779269915     
  4.028434566690176E-002   3.96429283762744     
  4.480240081374449E-002   4.10587041526455     
  4.916212234554631E-002   4.22374485590932     
  5.327443888981451E-002   4.21598134042452     
  5.704014173954997E-002   4.09696859011648     
  6.035151553084311E-002   3.78978237944077     
  6.310748000134161E-002   3.27056175451953     
  6.434766180578094E-002  0.000000000000000E+000
# Incident energy (eV) <ix = -1> D@S@+1@N@
 -2.763493722132500E-002  0.000000000000000E+000
 -2.689076635196357E-002   3.37334108814845     
 -2.541784959503192E-002   3.59084367452841     
 -2.394440031549894E-002   3.74553159055260     
 -2.245902356563881E-002   3.84805389112599     
 -2.096350680853401E-002   3.89267173530558     
 -1.946887753116082E-002   3.90042788241131     
 -1.796118828063125E-002   3.89239036435762     
 -1.644054652987059E-002   3.87012454771599     
 -1.492039977094186E-002   3.86489901759769     
 -1.338795555243630E-002   3.86904778077171     
 -1.184302293495344E-002   3.86613790153366     
 -1.029830153793506E-002   3.85951862637079     
 -8.741200871919565E-003   3.86346511333493     
 -7.169765108656370E-003   3.85363820538593     
 -5.596391782924343E-003   3.85336281603128     
 -4.009285715665004E-003   3.85148815459817     
 -2.407231793499862E-003   3.85048544531223     
 -8.027186780715442E-004   3.85093822849845     
  7.222482027063638E-004   3.78801971691562     
  2.445727663856482E-003   3.84722807854428     
  4.705028124355796E-003   3.93927392018763     
  7.448756847466896E-003   4.08185819926656     
  1.062892123894494E-002   4.30571631671631     
  1.419191372374710E-002   4.61158121169809     
  1.807690669065985E-002   4.99444611988913     
  2.222966506509995E-002   5.43166265460654     
  2.659237875228051E-002   5.88747037310832     
  3.110208014362341E-002   6.34739280927203     
  3.569070415039962E-002   6.78046420038715     
  4.028434566690176E-002   7.19056481998354     
  4.480240081374449E-002   7.47767887489395     
  4.916212234554631E-002   7.71298985375662     
  5.327443888981451E-002   7.72160179177492     
  5.704014173954997E-002   7.54854049578418     
  6.035151553084311E-002   7.07530181539207     
  6.310748000134161E-002   6.29570117085153     
  6.434766180578094E-002  0.000000000000000E+000
# Incident energy (eV) <ix = -1> Ar@S@0@N@
 -2.763493722132500E-002  0.000000000000000E+000
 -2.689076635196357E-002   1.61829842288865     
 -2.541784959503192E-002   1.75331209172541     
 -2.394440031549894E-002   1.83981849915840     
 -2.245902356563881E-002   1.90224466420019     
 -2.096350680853401E-002   1.93429410423498     
 -1.946887753116082E-002   1.95245748075051     
 -1.796118828063125E-002   1.96359871566322     
 -1.644054652987059E-002   1.97670235257579     
 -1.492039977094186E-002   1.99276558664199     
 -1.338795555243630E-002   2.00888378932351     
 -1.184302293495344E-002   2.03222302250736     
 -1.029830153793506E-002   2.05151848555209     
 -8.741200871919565E-003   2.07059869195133     
 -7.169765108656370E-003   2.09192117084713     
 -5.596391782924343E-003   2.11306333708068     
 -4.009285715665004E-003   2.13325177332387     
 -2.407231793499862E-003   2.15582415637963     
 -8.027186780715442E-004   2.17811883828995     
  7.222482027063638E-004   2.18630505045392     
  2.445727663856482E-003   2.21781189953068     
  4.705028124355796E-003   2.27868790855873     
  7.448756847466896E-003   2.37226605218746     
  1.062892123894494E-002   2.51402354385131     
  1.419191372374710E-002   2.69472163440769     
  1.807690669065985E-002   2.90498272048633     
  2.222966506509995E-002   3.13369648696994     
  2.659237875228051E-002   3.35476515636702     
  3.110208014362341E-002   3.57090275979623     
  3.569070415039962E-002   3.77848779269915     
  4.028434566690176E-002   3.96429283762744     
  4.480240081374449E-002   4.10587041526455     
  4.916212234554631E-002   4.22374485590932     
  5.327443888981451E-002   4.21598134042452     
  5.704014173954997E-002   4.09696859011648     
  6.035151553084311E-002   3.78978237944077     
  6.310748000134161E-002   3.27056175451953     
  6.434766180578094E-002  0.000000000000000E+000
# Incident energy (eV) <ix = -1> Ar@S@+1@N@
 -2.763493722132500E-002  0.000000000000000E+000
 -2.689076635196357E-002   3.37334108814845     
 -2.541784959503192E-002   3.59084367452841     
 -2.394440031549894E-002   3.74553159055260     
 -2.245902356563881E-002   3.84805389112599     
 -2.096350680853401E-002   3.89267173530558     
 -1.946887753116082E-002   3.90042788241131     
 -1.796118828063125E-002   3.89239036435762     
 -1.644054652987059E-002   3.87012454771599     
 -1.492039977094186E-002   3.86489901759769     
 -1.338795555243630E-002   3.86904778077171     
 -1.184302293495344E-002   3.86613790153366     
 -1.029830153793506E-002   3.85951862637079     
 -8.741200871919565E-003   3.86346511333493     
 -7.169765108656370E-003   3.85363820538593     
 -5.596391782924343E-003   3.85336281603128     
 -4.009285715665004E-003   3.85148815459817     
 -2.407231793499862E-003   3.85048544531223     
 -8.027186780715442E-004   3.85093822849845     
  7.222482027063638E-004   3.78801971691562     
  2.445727663856482E-003   3.84722807854428     
  4.705028124355796E-003   3.93927392018763     
  7.448756847466896E-003   4.08185819926656     
  1.062892123894494E-002   4.30571631671631     
  1.419191372374710E-002   4.61158121169809     
  1.807690669065985E-002   4.99444611988913     
  2.222966506509995E-002   5.43166265460654     
  2.659237875228051E-002   5.88747037310832     
  3.110208014362341E-002   6.34739280927203     
  3.569070415039962E-002   6.78046420038715     
  4.028434566690176E-002   7.19056481998354     
  4.480240081374449E-002   7.47767887489395     
  4.916212234554631E-002   7.71298985375662     
  5.327443888981451E-002   7.72160179177492     
  5.704014173954997E-002   7.54854049578418     
  6.035151553084311E-002   7.07530181539207     
  6.310748000134161E-002   6.29570117085153     
  6.434766180578094E-002  0.000000000000000E+000
# Incident energy (eV) <ix = -1> Ar@S@+2@N@
 -2.763493722132500E-002  0.000000000000000E+000
 -2.689076635196357E-002   5.12838375340825     
 -2.541784959503192E-002   5.42837525733141     
 -2.394440031549894E-002   5.65124468194680     
 -2.245902356563881E-002   5.79386311805179     
 -2.096350680853401E-002   5.85104936637618     
 -1.946887753116082E-002   5.84839828407211     
 -1.796118828063125E-002   5.82118201305202     
 -1.644054652987059E-002   5.76354674285619     
 -1.492039977094186E-002   5.73703244855339     
 -1.338795555243630E-002   5.72921177221991     
 -1.184302293495344E-002   5.70005278055996     
 -1.029830153793506E-002   5.66751876718949     
 -8.741200871919565E-003   5.65633153471853     
 -7.169765108656370E-003   5.61535523992473     
 -5.596391782924343E-003   5.59366229498188     
 -4.009285715665004E-003   5.56972453587247     
 -2.407231793499862E-003   5.54514673424483     
 -8.027186780715442E-004   5.52375761870695     
  7.222482027063638E-004   5.38973438337732     
  2.445727663856482E-003   5.47664425755788     
  4.705028124355796E-003   5.59985993181653     
  7.448756847466896E-003   5.79145034634566     
  1.062892123894494E-002   6.09740908958131     
  1.419191372374710E-002   6.52844078898849     
  1.807690669065985E-002   7.08390951929193     
  2.222966506509995E-002   7.72962882224314     
  2.659237875228051E-002   8.42017558984962     
  3.110208014362341E-002   9.12388285874783     
  3.569070415039962E-002   9.78244060807515     
  4.028434566690176E-002   10.4168368023396     
  4.480240081374449E-002   10.8494873345234     
  4.916212234554631E-002   11.2022348516039     
  5.327443888981451E-002   11.2272222431253     
  5.704014173954997E-002   11.0001124014519     
  6.035151553084311E-002   10.3608212513434     
  6.310748000134161E-002   9.32084058718353     
  6.434766180578094E-002  0.000000000000000E+000
# Incident energy (eV) <ix = -1> Ar@S@+3@N@
 -2.763493722132500E-002  0.000000000000000E+000
 -2.689076635196357E-002   6.88342641866805     
 -2.541784959503192E-002   7.26590684013441     
 -2.394440031549894E-002   7.55695777334100     
 -2.245902356563881E-002   7.73967234497759     
 -2.096350680853401E-002   7.80942699744678     
 -1.946887753116082E-002   7.79636868573291     
 -1.796118828063125E-002   7.74997366174642     
 -1.644054652987059E-002   7.65696893799639     
 -1.492039977094186E-002   7.60916587950909     
 -1.338795555243630E-002   7.58937576366811     
 -1.184302293495344E-002   7.53396765958626     
 -1.029830153793506E-002   7.47551890800819     
 -8.741200871919565E-003   7.44919795610213     
 -7.169765108656370E-003   7.37707227446353     
 -5.596391782924343E-003   7.33396177393248     
 -4.009285715665004E-003   7.28796091714677     
 -2.407231793499862E-003   7.23980802317743     
 -8.027186780715442E-004   7.19657700891545     
  7.222482027063638E-004   6.99144904983902     
  2.445727663856482E-003   7.10606043657148     
  4.705028124355796E-003   7.26044594344543     
  7.448756847466896E-003   7.50104249342476     
  1.062892123894494E-002   7.88910186244631     
  1.419191372374710E-002   8.44530036627889     
  1.807690669065985E-002   9.17337291869473     
  2.222966506509995E-002   10.0275949898797     
  2.659237875228051E-002   10.9528808065909     
  3.110208014362341E-002   11.9003729082236     
  3.569070415039962E-002   12.7844170157632     
  4.028434566690176E-002   13.6431087846957     
  4.480240081374449E-002   14.2212957941528     
  4.916212234554631E-002   14.6914798494512     
  5.327443888981451E-002   14.7328426944757     
  5.704014173954997E-002   14.4516843071196     
  6.035151553084311E-002   13.6463406872947     
  6.310748000134161E-002   12.3459800035155     
  6.434766180578094E-002  0.000000000000000E+000
# Incident energy (eV) <ix = -1> Ar@S@+4@N@
 -2.763493722132500E-002  0.000000000000000E+000
 -2.689076635196357E-002   8.63846908392784     
 -2.541784959503192E-002   9.10343842293741     
 -2.394440031549894E-002   9.46267086473520     
 -2.245902356563881E-002   9.68548157190339     
 -2.096350680853401E-002   9.76780462851738     
 -1.946887753116082E-002   9.74433908739371     
 -1.796118828063125E-002   9.67876531044082     
 -1.644054652987059E-002   9.55039113313659     
 -1.492039977094186E-002   9.48129931046479     
 -1.338795555243630E-002   9.44953975511631     
 -1.184302293495344E-002   9.36788253861256     
 -1.029830153793506E-002   9.28351904882689     
 -8.741200871919565E-003   9.24206437748573     
 -7.169765108656370E-003   9.13878930900233     
 -5.596391782924343E-003   9.07426125288308     
 -4.009285715665004E-003   9.00619729842107     
 -2.407231793499862E-003   8.93446931211003     
 -8.027186780715442E-004   8.86939639912395     
  7.222482027063638E-004   8.59316371630072     
  2.445727663856482E-003   8.73547661558508     
  4.705028124355796E-003   8.92103195507433     
  7.448756847466896E-003   9.21063464050386     
  1.062892123894494E-002   9.68079463531131     
  1.419191372374710E-002   10.3621599435693     
  1.807690669065985E-002   11.2628363180975     
  2.222966506509995E-002   12.3255611575163     
  2.659237875228051E-002   13.4855860233322     
  3.110208014362341E-002   14.6768629576994     
  3.569070415039962E-002   15.7863934234512     
  4.028434566690176E-002   16.8693807670518     
  4.480240081374449E-002   17.5931042537822     
  4.916212234554631E-002   18.1807248472985     
  5.327443888981451E-002   18.2384631458261     
  5.704014173954997E-002   17.9032562127873     
  6.035151553084311E-002   16.9318601232460     
  6.310748000134161E-002   15.3711194198475     
  6.434766180578094E-002  0.000000000000000E+000
# Incident energy (eV) <ix = -1> Ar@S@+5@N@
 -2.763493722132500E-002  0.000000000000000E+000
 -2.689076635196357E-002   10.3935117491876     
 -2.541784959503192E-002   10.9409700057404     
 -2.394440031549894E-002   11.3683839561294     
 -2.245902356563881E-002   11.6312907988292     
 -2.096350680853401E-002   11.7261822595880     
 -1.946887753116082E-002   11.6923094890545     
 -1.796118828063125E-002   11.6075569591352     
 -1.644054652987059E-002   11.4438133282768     
 -1.492039977094186E-002   11.3534327414205     
 -1.338795555243630E-002   11.3097037465645     
 -1.184302293495344E-002   11.2017974176389     
 -1.029830153793506E-002   11.0915191896456     
 -8.741200871919565E-003   11.0349307988693     
 -7.169765108656370E-003   10.9005063435411     
 -5.596391782924343E-003   10.8145607318337     
 -4.009285715665004E-003   10.7244336796954     
 -2.407231793499862E-003   10.6291306010426     
 -8.027186780715442E-004   10.5422157893325     
  7.222482027063638E-004   10.1948783827624     
  2.445727663856482E-003   10.3648927945987     
  4.705028124355796E-003   10.5816179667032     
  7.448756847466896E-003   10.9202267875830     
  1.062892123894494E-002   11.4724874081763     
  1.419191372374710E-002   12.2790195208597     
  1.807690669065985E-002   13.3522997175003     
  2.222966506509995E-002   14.6235273251529     
  2.659237875228051E-002   16.0182912400735     
  3.110208014362341E-002   17.4533530071752     
  3.569070415039962E-002   18.7883698311392     
  4.028434566690176E-002   20.0956527494079     
  4.480240081374449E-002   20.9649127134116     
  4.916212234554631E-002   21.6699698451458     
  5.327443888981451E-002   21.7440835971765     
  5.704014173954997E-002   21.3548281184550     
  6.035151553084311E-002   20.2173795591973     
  6.310748000134161E-002   18.3962588361795     
  6.434766180578094E-002  0.000000000000000E+000
# Incident energy (eV) <ix = -1> Ar@S@+6@N@
 -2.763493722132500E-002  0.000000000000000E+000
 -2.689076635196357E-002   12.1485544144474     
 -2.541784959503192E-002   12.7785015885434     
 -2.394440031549894E-002   13.2740970475236     
 -2.245902356563881E-002   13.5771000257550     
 -2.096350680853401E-002   13.6845598906586     
 -1.946887753116082E-002   13.6402798907153     
 -1.796118828063125E-002   13.5363486078296     
 -1.644054652987059E-002   13.3372355234170     
 -1.492039977094186E-002   13.2255661723762     
 -1.338795555243630E-002   13.1698677380127     
 -1.184302293495344E-002   13.0357122966652     
 -1.029830153793506E-002   12.8995193304643     
 -8.741200871919565E-003   12.8277972202529     
 -7.169765108656370E-003   12.6622233780799     
 -5.596391782924343E-003   12.5548602107843     
 -4.009285715665004E-003   12.4426700609697     
 -2.407231793499862E-003   12.3237918899752     
 -8.027186780715442E-004   12.2150351795409     
  7.222482027063638E-004   11.7965930492241     
  2.445727663856482E-003   11.9943089736123     
  4.705028124355796E-003   12.2422039783321     
  7.448756847466896E-003   12.6298189346621     
  1.062892123894494E-002   13.2641801810413     
  1.419191372374710E-002   14.1958790981501     
  1.807690669065985E-002   15.4417631169031     
  2.222966506509995E-002   16.9214934927895     
  2.659237875228051E-002   18.5509964568148     
  3.110208014362341E-002   20.2298430566510     
  3.569070415039962E-002   21.7903462388272     
  4.028434566690176E-002   23.3219247317640     
  4.480240081374449E-002   24.3367211730410     
  4.916212234554631E-002   25.1592148429931     
  5.327443888981451E-002   25.2497040485269     
  5.704014173954997E-002   24.8064000241227     
  6.035151553084311E-002   23.5028989951486     
  6.310748000134161E-002   21.4213982525115     
  6.434766180578094E-002  0.000000000000000E+000
# Incident energy (eV) <ix = -1> Ar@S@+7@N@
 -2.763493722132500E-002  0.000000000000000E+000
 -2.689076635196357E-002   13.9035970797072     
 -2.541784959503192E-002   14.6160331713464     
 -2.394440031549894E-002   15.1798101389178     
 -2.245902356563881E-002   15.5229092526808     
 -2.096350680853401E-002   15.6429375217292     
 -1.946887753116082E-002   15.5882502923761     
 -1.796118828063125E-002   15.4651402565240     
 -1.644054652987059E-002   15.2306577185572     
 -1.492039977094186E-002   15.0976996033319     
 -1.338795555243630E-002   15.0300317294609     
 -1.184302293495344E-002   14.8696271756915     
 -1.029830153793506E-002   14.7075194712830     
 -8.741200871919565E-003   14.6206636416365     
 -7.169765108656370E-003   14.4239404126187     
 -5.596391782924343E-003   14.2951596897349     
 -4.009285715665004E-003   14.1609064422440     
 -2.407231793499862E-003   14.0184531789078     
 -8.027186780715442E-004   13.8878545697495     
  7.222482027063638E-004   13.3983077156858     
  2.445727663856482E-003   13.6237251526259     
  4.705028124355796E-003   13.9027899899610     
  7.448756847466896E-003   14.3394110817412     
  1.062892123894494E-002   15.0558729539063     
  1.419191372374710E-002   16.1127386754405     
  1.807690669065985E-002   17.5312265163059     
  2.222966506509995E-002   19.2194596604261     
  2.659237875228051E-002   21.0837016735561     
  3.110208014362341E-002   23.0063331061268     
  3.569070415039962E-002   24.7923226465152     
  4.028434566690176E-002   26.5481967141201     
  4.480240081374449E-002   27.7085296326704     
  4.916212234554631E-002   28.6484598408404     
  5.327443888981451E-002   28.7553244998773     
  5.704014173954997E-002   28.2579719297904     
  6.035151553084311E-002   26.7884184310999     
  6.310748000134161E-002   24.4465376688435     
  6.434766180578094E-002  0.000000000000000E+000
# Incident energy (eV) <ix = -1> Ar@S@+8@N@
 -2.763493722132500E-002  0.000000000000000E+000
 -2.689076635196357E-002   15.6586397449670     
 -2.541784959503192E-002   16.4535647541494     
 -2.394440031549894E-002   17.0855232303120     
 -2.245902356563881E-002   17.4687184796066     
 -2.096350680853401E-002   17.6013151527998     
 -1.946887753116082E-002   17.5362206940369     
 -1.796118828063125E-002   17.3939319052184     
 -1.644054652987059E-002   17.1240799136974     
 -1.492039977094186E-002   16.9698330342876     
 -1.338795555243630E-002   16.8901957209091     
 -1.184302293495344E-002   16.7035420547178     
 -1.029830153793506E-002   16.5155196121017     
 -8.741200871919565E-003   16.4135300630201     
 -7.169765108656370E-003   16.1856574471575     
 -5.596391782924343E-003   16.0354591686855     
 -4.009285715665004E-003   15.8791428235183     
 -2.407231793499862E-003   15.7131144678404     
